ch1,ch2,ch3,ch4,ch5,ch6,ch7,ch8,class
-3.53244e-05,8.96151e-06,-1.31643e-05,-3.36674e-05,-3.60134e-07,-2.31006e-05,1.89277e-06,1.60064e-06,5
-3.399e-05,9.27831e-06,-1.4606e-05,-4.11435e-05,-3.50229e-06,-3.38613e-05,4.50272e-06,3.13129e-06,5
-3.28628e-05,1.06924e-05,-1.48117e-05,-3.86193e-05,-5.02336e-06,-4.04035e-05,8.22867e-06,3.77757e-06,5
-3.23868e-05,1.24473e-05,-1.34797e-05,-2.79637e-05,-6.59184e-06,-4.01738e-05,1.21215e-05,3.5981e-06,5
-3.20012e-05,1.31352e-05,-1.17832e-05,-1.7041e-05,-6.02724e-06,-3.41387e-05,1.54574e-05,3.23722e-06,5
-3.02372e-05,1.43398e-05,-1.01433e-05,-8.58265e-06,-3.00511e-06,-2.385e-05,1.68508e-05,1.11177e-06,5
-2.80255e-05,1.46666e-05,-9.46176e-06,-4.21606e-06,1.34299e-06,-1.38886e-05,1.57526e-05,-5.77999e-07,5
-2.68011e-05,1.54288e-05,-9.19572e-06,-3.8729e-06,4.76188e-06,-1.04114e-05,1.51479e-05,-6.42289e-07,5
-2.6768e-05,1.702e-05,-9.6025e-06,-4.33814e-06,7.08323e-06,-1.49649e-05,1.594e-05,-3.12807e-07,5
-2.77783e-05,1.82881e-05,-9.57716e-06,-4.33416e-06,1.02299e-05,-2.19868e-05,1.47942e-05,5.39472e-08,5
-2.89842e-05,1.86504e-05,-8.31204e-06,-2.45674e-06,1.46809e-05,-2.7113e-05,1.23319e-05,7.50484e-07,5
-2.94806e-05,1.78947e-05,-5.80807e-06,1.4743e-06,1.84826e-05,-2.68099e-05,1.18255e-05,1.06758e-06,5
-2.8772e-05,1.59548e-05,-4.02402e-06,5.2434e-06,1.99375e-05,-2.02873e-05,1.29548e-05,1.9664e-06,5
-2.76071e-05,1.35484e-05,-4.95073e-06,6.27915e-06,2.15746e-05,-1.1698e-05,1.37187e-05,3.50672e-06,5
-2.71238e-05,1.25501e-05,-6.32634e-06,6.36287e-06,2.55007e-05,-7.23854e-06,1.34708e-05,4.36138e-06,5
-2.7607e-05,1.31259e-05,-6.06746e-06,6.29125e-06,3.24378e-05,-5.97235e-06,1.23658e-05,4.42689e-06,5
-2.8332e-05,1.4141e-05,-5.24023e-06,5.77783e-06,4.19114e-05,-3.4303e-06,1.20319e-05,3.65212e-06,5
-2.89826e-05,1.45265e-05,-5.41607e-06,5.83207e-06,5.18372e-05,2.15155e-06,1.37477e-05,3.00015e-06,5
-2.94078e-05,1.47743e-05,-6.1828e-06,8.59079e-06,5.55834e-05,6.36191e-06,1.61876e-05,3.53721e-06,5
-2.95236e-05,1.49113e-05,-6.07904e-06,1.23649e-05,4.62263e-05,4.62225e-06,1.86928e-05,4.59489e-06,5
-2.85142e-05,1.48188e-05,-4.48219e-06,1.40177e-05,2.23638e-05,-1.70359e-07,2.15052e-05,5.047e-06,5
-2.6783e-05,1.49537e-05,-3.16576e-06,1.27022e-05,-9.67808e-06,-5.45118e-06,2.34613e-05,4.1909e-06,5
-2.62794e-05,1.53555e-05,-4.08944e-06,1.06542e-05,-4.17257e-05,-1.20085e-05,2.07518e-05,1.82445e-06,5
-2.77688e-05,1.4886e-05,-7.78783e-06,1.00471e-05,-7.54109e-05,-1.93199e-05,1.42424e-05,-8.02822e-07,5
-2.95793e-05,1.46736e-05,-1.16986e-05,1.00862e-05,-9.38819e-05,-2.48087e-05,9.80136e-06,-1.62057e-06,5
-3.11802e-05,1.55129e-05,-1.23717e-05,8.28627e-06,-7.35344e-05,-2.65744e-05,1.02008e-05,4.90172e-07,5
-3.26082e-05,1.58467e-05,-1.03127e-05,4.4084e-06,-3.06463e-05,-2.47627e-05,1.08693e-05,8.57029e-07,5
-3.3287e-05,1.39236e-05,-8.39724e-06,-9.87423e-07,1.32536e-05,-2.10438e-05,7.05823e-06,-1.66163e-06,5
-3.27158e-05,1.2126e-05,-9.53952e-06,-6.83061e-06,5.58445e-05,-1.44216e-05,4.92552e-07,-2.6063e-06,5
-3.062e-05,1.1084e-05,-1.14627e-05,-6.25411e-06,9.92828e-05,-7.07993e-06,-4.48786e-06,-1.85515e-06,5
-3.01469e-05,1.09875e-05,-1.02862e-05,1.70346e-06,0.000133897,-2.75995e-06,-3.20069e-06,3.5677e-08,5
-3.18889e-05,1.08171e-05,-7.69062e-06,6.08893e-06,0.000140227,-2.26975e-06,5.00577e-06,1.85184e-06,5
-3.37393e-05,9.464e-06,-6.71712e-06,1.08716e-06,0.000115902,-8.82077e-06,1.56844e-05,2.47812e-06,5
-3.48584e-05,8.1131e-06,-7.04433e-06,-5.79778e-06,7.46887e-05,-2.16231e-05,1.91362e-05,6.84394e-07,5
-3.47909e-05,7.66701e-06,-7.75493e-06,-7.30318e-06,2.937e-05,-3.46508e-05,1.45842e-05,-3.4712e-06,5
-3.36229e-05,8.99812e-06,-8.95859e-06,-3.15291e-06,-1.00331e-05,-4.11383e-05,7.88985e-06,-6.4556e-06,5
-3.13964e-05,1.15044e-05,-9.56538e-06,2.23193e-06,-2.62455e-05,-3.99555e-05,3.99897e-06,-7.13787e-06,5
-2.95829e-05,1.45392e-05,-9.56932e-06,6.70718e-06,-1.24551e-05,-3.51917e-05,8.26835e-06,-6.66461e-06,5
-2.96105e-05,1.56091e-05,-9.35315e-06,1.10164e-05,1.56859e-05,-3.07674e-05,1.77672e-05,-6.0748e-06,5
-3.07525e-05,1.50658e-05,-8.87407e-06,1.6042e-05,4.13657e-05,-2.54048e-05,2.42791e-05,-4.81852e-06,5
-3.14455e-05,1.47548e-05,-8.32318e-06,1.98164e-05,5.93067e-05,-1.32051e-05,2.37618e-05,-2.28851e-06,5
-3.07149e-05,1.53909e-05,-7.57488e-06,1.85483e-05,6.87607e-05,3.81448e-06,2.03686e-05,3.49313e-07,5
-2.85617e-05,1.54447e-05,-7.0671e-06,1.02697e-05,6.7896e-05,1.60698e-05,1.93174e-05,2.58502e-06,5
-2.72214e-05,1.35162e-05,-8.51091e-06,-3.56108e-06,5.74752e-05,1.51386e-05,2.08075e-05,3.70595e-06,5
-2.8119e-05,1.01114e-05,-1.22424e-05,-1.5373e-05,4.61347e-05,4.94232e-06,1.93526e-05,2.80127e-06,5
-2.9797e-05,7.75491e-06,-1.4674e-05,-1.64458e-05,4.23009e-05,-1.33089e-06,1.23639e-05,1.65601e-07,5
-3.08401e-05,6.52611e-06,-1.40152e-05,-1.03668e-05,4.31729e-05,2.88771e-06,2.20687e-06,-3.35848e-06,5
-3.14636e-05,4.35066e-06,-1.36666e-05,-1.0519e-05,3.86358e-05,9.30809e-06,-5.36003e-06,-5.53558e-06,5
-3.21686e-05,1.32158e-06,-1.43208e-05,-1.81993e-05,2.50588e-05,9.66805e-06,-6.12878e-06,-5.83752e-06,5
-3.11975e-05,1.25834e-06,-1.27378e-05,-2.24797e-05,7.93451e-06,6.07557e-06,-4.40126e-07,-5.32347e-06,5
-2.99838e-05,4.73834e-06,-9.51492e-06,-1.88255e-05,-7.29881e-06,1.06098e-06,9.38002e-06,-2.85311e-06,5
-2.97938e-05,6.16795e-06,-9.00073e-06,-1.44451e-05,-1.67154e-05,-5.58903e-06,1.91099e-05,7.25808e-07,5
-2.97812e-05,6.08327e-06,-1.07832e-05,-1.35745e-05,-2.44471e-05,-1.31671e-05,2.50477e-05,3.56054e-06,5
-2.90287e-05,8.01681e-06,-1.10149e-05,-1.40086e-05,-3.54501e-05,-1.53355e-05,2.47965e-05,6.20479e-06,5
-2.72242e-05,1.17845e-05,-7.28194e-06,-1.32671e-05,-4.58438e-05,-1.00372e-05,2.27448e-05,6.47346e-06,5
-2.55187e-05,1.37721e-05,-1.20214e-06,-1.04296e-05,-5.26895e-05,-3.30826e-06,2.20985e-05,4.80804e-06,5
-2.42492e-05,1.17763e-05,1.57238e-06,-6.4972e-06,-5.48381e-05,-1.22064e-06,1.94867e-05,3.32896e-06,5
-2.56652e-05,8.22684e-06,2.33979e-07,-2.99233e-06,-4.87655e-05,-4.78403e-06,1.58405e-05,2.16208e-06,5
-2.78977e-05,4.83167e-06,-2.78744e-06,1.68908e-08,-3.05601e-05,-7.62222e-06,1.16488e-05,1.93878e-06,5
-2.9469e-05,3.56638e-06,-4.39542e-06,2.17179e-06,-9.10782e-07,-5.98942e-06,8.71494e-06,1.81331e-06,5
-3.06099e-05,6.18317e-06,-5.81408e-06,-3.95091e-08,3.41509e-05,-8.60986e-07,1.01333e-05,1.57931e-06,5
-3.11259e-05,1.16858e-05,-8.23483e-06,-4.75932e-06,6.77833e-05,4.57796e-06,1.42381e-05,3.9494e-07,5
-3.10935e-05,1.79953e-05,-8.24023e-06,-7.00957e-06,9.37149e-05,6.51886e-06,1.69995e-05,-6.33123e-07,5
-2.96843e-05,2.55073e-05,-6.3372e-06,-4.92247e-06,0.000102241,1.69304e-06,1.60007e-05,-4.11644e-07,5
-2.81956e-05,3.45198e-05,-4.32361e-06,-1.80648e-06,9.0288e-05,-6.04867e-06,1.21378e-05,-6.94995e-07,5
-2.78585e-05,4.17068e-05,-3.82559e-06,-3.00069e-06,6.79272e-05,-1.05864e-05,5.90089e-06,-3.2681e-06,5
-2.85725e-05,4.26384e-05,-5.03318e-06,-8.6109e-06,4.51005e-05,-1.15635e-05,1.62746e-07,-5.86979e-06,5
-2.85484e-05,3.74014e-05,-6.761e-06,-1.415e-05,2.75166e-05,-1.0774e-05,-2.58648e-06,-5.25365e-06,5
-2.84093e-05,3.23394e-05,-7.15978e-06,-1.53518e-05,1.70288e-05,-1.27186e-05,-1.33749e-06,-3.05696e-06,5
-3.00669e-05,3.0382e-05,-6.18253e-06,-1.2851e-05,9.45869e-06,-1.94957e-05,1.94598e-06,-2.05674e-06,5
-3.33886e-05,2.9069e-05,-5.2288e-06,-1.04425e-05,-1.53386e-07,-2.67108e-05,4.11835e-06,-2.56164e-06,5
-3.53792e-05,2.67463e-05,-4.31898e-06,-9.58715e-06,-9.25925e-06,-2.61355e-05,5.07613e-06,-2.74476e-06,5
-3.40052e-05,2.50317e-05,-3.27892e-06,-8.28133e-06,-1.26395e-05,-1.66878e-05,9.29018e-06,-2.2424e-06,5
-3.11439e-05,2.29502e-05,-1.14512e-06,-6.19893e-06,-9.52101e-06,-5.37838e-06,1.8071e-05,-1.53427e-06,5
-3.05821e-05,1.84199e-05,4.57096e-07,-3.25185e-06,-2.19081e-06,2.0467e-07,2.41731e-05,-5.76153e-07,5
-3.22909e-05,1.22962e-05,-5.61373e-07,-5.99649e-07,6.45643e-06,-1.00495e-06,2.29658e-05,6.26927e-07,5
-3.30368e-05,6.35074e-06,-5.1379e-06,5.48254e-07,1.19784e-05,-7.62759e-06,1.94668e-05,2.03273e-06,5
-3.37486e-05,1.10046e-06,-1.28493e-05,6.94891e-07,7.44221e-06,-1.39782e-05,1.92916e-05,2.31534e-06,5
-3.64055e-05,-2.05751e-06,-1.80721e-05,1.54433e-06,-9.03691e-06,-1.42054e-05,2.10975e-05,2.94736e-07,5
-3.84151e-05,-1.46112e-06,-1.72399e-05,2.6306e-06,-2.6286e-05,-1.08419e-05,2.04017e-05,-2.83637e-06,5
-3.72695e-05,1.15694e-06,-1.41913e-05,-1.96443e-07,-2.81394e-05,-7.02836e-06,1.80538e-05,-4.3924e-06,5
-3.35462e-05,3.85342e-06,-1.2802e-05,-6.07067e-07,-1.42594e-05,-2.24929e-06,2.14941e-05,-2.53222e-06,5
-2.92207e-05,6.14022e-06,-1.49567e-05,4.91978e-06,7.16037e-06,3.78883e-06,2.88434e-05,5.42721e-07,5
-2.82759e-05,7.9198e-06,-1.77535e-05,1.14592e-05,2.71975e-05,5.01045e-06,3.11186e-05,1.79583e-06,5
-3.03833e-05,9.16401e-06,-1.77403e-05,1.45628e-05,3.20006e-05,-6.75763e-07,2.58405e-05,1.68258e-06,5
-3.24097e-05,1.03685e-05,-1.68859e-05,9.29794e-06,1.1754e-05,-8.24965e-06,1.83465e-05,2.01894e-06,5
-3.31466e-05,1.32328e-05,-1.48346e-05,-1.29293e-06,-3.31615e-05,-1.55684e-05,1.38921e-05,1.39826e-06,5
-3.26238e-05,1.65916e-05,-1.24092e-05,-1.13961e-05,-7.76076e-05,-2.24954e-05,1.18569e-05,-7.12127e-07,5
-3.1945e-05,1.79999e-05,-1.07144e-05,-1.6186e-05,-9.24774e-05,-2.77779e-05,9.54156e-06,-3.26339e-06,5
-3.09242e-05,1.86424e-05,-9.98149e-06,-1.449e-05,-7.99682e-05,-3.06296e-05,5.59404e-06,-4.95757e-06,5
-2.98003e-05,1.94791e-05,-8.43147e-06,-8.78436e-06,-5.70503e-05,-3.00068e-05,9.43366e-08,-4.83143e-06,5
-2.86764e-05,1.96535e-05,-5.57321e-06,-2.57568e-06,-2.36821e-05,-2.2808e-05,-2.94046e-06,-3.80186e-06,5
-2.78097e-05,1.89693e-05,-2.82887e-06,2.02303e-06,2.31202e-05,-8.03113e-06,9.60093e-07,-1.83888e-06,5
-2.77424e-05,1.79903e-05,-8.79392e-07,4.84968e-06,7.2883e-05,6.073e-06,1.15768e-05,1.09824e-06,5
-2.81208e-05,1.73915e-05,7.67025e-07,5.10429e-06,0.000113977,9.23118e-06,2.24915e-05,4.41152e-06,5
-2.81055e-05,1.80259e-05,2.51042e-06,2.63779e-06,0.000145348,3.41644e-06,2.69771e-05,5.41211e-06,5
-2.75518e-05,1.94996e-05,1.7621e-06,8.64242e-08,0.000175835,9.46399e-07,2.40654e-05,4.10241e-06,5
-2.79193e-05,1.94997e-05,-8.78035e-07,9.05859e-07,0.000199534,6.57388e-06,1.67782e-05,2.80757e-06,5
-2.92623e-05,1.77254e-05,-2.39289e-06,3.64699e-06,0.00018816,1.05308e-05,9.60844e-06,2.42022e-06,5
-3.04883e-05,1.64485e-05,-2.48164e-06,6.44944e-06,0.000131444,4.6895e-06,4.54612e-06,1.83885e-06,5
-3.08612e-05,1.53091e-05,-4.10219e-06,6.55257e-06,6.19588e-05,-6.45204e-06,2.04384e-07,1.43289e-07,5
-3.0414e-05,1.34399e-05,-5.82751e-06,1.82613e-06,1.02034e-05,-1.48367e-05,-6.15453e-06,-1.44129e-06,5
-3.08779e-05,1.13421e-05,-6.65601e-06,-6.83435e-06,-2.66441e-05,-1.7965e-05,-1.29075e-05,-1.63723e-06,5
-3.33613e-05,9.7046e-06,-8.53493e-06,-1.55115e-05,-6.781e-05,-1.83634e-05,-1.42928e-05,-8.11187e-07,5
-3.54962e-05,8.07833e-06,-1.30431e-05,-1.79598e-05,-0.000117592,-1.76576e-05,-8.72321e-06,9.69879e-08,5
-3.62482e-05,6.10056e-06,-1.74655e-05,-1.69112e-05,-0.000157275,-1.59587e-05,-3.82719e-07,6.74167e-07,5
-3.53084e-05,4.05479e-06,-1.92795e-05,-2.35445e-05,-0.000164331,-1.54947e-05,7.50454e-06,5.31425e-07,5
-3.29206e-05,2.9116e-06,-1.80139e-05,-3.40787e-05,-0.00013498,-1.53063e-05,1.48615e-05,8.72928e-08,5
-3.07239e-05,1.57942e-06,-1.39487e-05,-3.16103e-05,-8.18977e-05,-1.59802e-05,1.99501e-05,-4.32058e-07,5
-3.12332e-05,-1.45697e-06,-9.5838e-06,-1.91441e-05,-1.59963e-05,-2.04866e-05,1.87556e-05,-8.88587e-07,5
-3.20861e-05,-4.37584e-06,-8.27752e-06,-1.06312e-05,4.47921e-05,-2.35391e-05,1.34021e-05,-1.16323e-06,5
-3.02675e-05,-5.92849e-06,-9.31861e-06,-8.88267e-06,8.03888e-05,-2.10781e-05,9.1612e-06,-4.72034e-08,5
-2.88036e-05,-6.54116e-06,-9.33619e-06,-1.05892e-05,8.81505e-05,-1.70809e-05,5.80352e-06,1.0723e-07,5
-2.8316e-05,-6.84322e-06,-6.99787e-06,-1.07911e-05,7.39357e-05,-1.67857e-05,2.30311e-06,-1.31343e-06,5
-2.79191e-05,-7.06296e-06,-3.19691e-06,-8.38846e-06,4.78577e-05,-2.03998e-05,2.5452e-07,-1.05645e-06,5
-2.60999e-05,-5.69322e-06,-1.29362e-06,-4.49896e-06,2.46678e-05,-2.46278e-05,5.51061e-07,1.68089e-07,5
-2.32342e-05,-1.05669e-06,1.39045e-07,3.3608e-07,1.20679e-05,-2.64148e-05,3.22307e-06,6.17288e-07,5
-2.14567e-05,4.82376e-06,2.48778e-06,6.22849e-06,7.05776e-06,-2.39529e-05,6.60834e-06,1.3892e-07,5
-2.13294e-05,9.13023e-06,4.57847e-06,1.13765e-05,1.55564e-06,-1.82003e-05,1.16627e-05,2.43775e-07,5
-2.14585e-05,1.07022e-05,3.84696e-06,1.09594e-05,-6.94156e-06,-1.17966e-05,1.84503e-05,1.43698e-07,5
-2.28889e-05,1.09138e-05,6.76494e-07,5.08725e-06,-1.70729e-05,-7.33482e-06,2.35526e-05,-8.53622e-07,5
-2.61803e-05,1.1701e-05,-1.21611e-06,8.47752e-07,-2.43675e-05,-5.07133e-06,2.66476e-05,-1.88999e-06,5
-2.88232e-05,1.373e-05,5.931e-07,3.96044e-06,-2.40945e-05,-4.34193e-06,2.86028e-05,-1.85533e-06,5
-2.90266e-05,1.61524e-05,4.79485e-06,1.10794e-05,-1.50901e-05,-4.79088e-06,2.82931e-05,-7.01843e-07,5
-2.76052e-05,1.96356e-05,8.48951e-06,1.44072e-05,1.2322e-06,-5.33043e-06,2.43327e-05,-2.32224e-08,5
-2.64574e-05,2.48143e-05,1.04828e-05,1.20005e-05,2.10893e-05,-5.54767e-06,2.00732e-05,4.17087e-07,5
-2.67943e-05,3.02616e-05,1.01862e-05,6.50551e-06,3.74129e-05,-9.26839e-06,1.99977e-05,1.17896e-06,5
-2.90295e-05,3.68238e-05,8.06747e-06,-1.44849e-06,4.19032e-05,-1.90517e-05,2.36633e-05,2.51848e-06,5
-3.08023e-05,4.43404e-05,5.31593e-06,-1.05682e-05,3.2032e-05,-2.95805e-05,2.63367e-05,3.50889e-06,5
-3.17355e-05,5.10089e-05,1.63125e-06,-1.69574e-05,1.65556e-05,-3.21795e-05,2.51449e-05,4.07629e-06,5
-3.25398e-05,5.24464e-05,-3.85688e-06,-1.87716e-05,8.28336e-06,-2.67203e-05,2.11531e-05,4.01483e-06,5
-3.42022e-05,4.25053e-05,-9.59571e-06,-1.46727e-05,9.46139e-06,-2.4337e-05,1.61549e-05,1.21169e-06,5
-3.54675e-05,2.18708e-05,-1.43216e-05,-6.05651e-06,1.47184e-05,-2.86536e-05,1.10147e-05,-3.92465e-06,5
-3.49695e-05,1.3843e-06,-2.07335e-05,-2.59301e-06,1.57233e-05,-3.06129e-05,6.79547e-06,-8.70727e-06,5
-3.39413e-05,-4.59213e-06,-3.00261e-05,-8.72267e-06,8.33864e-06,-2.66411e-05,6.04896e-06,-1.01471e-05,5
-3.2609e-05,-9.47823e-07,-3.69374e-05,-1.60751e-05,6.66116e-08,-2.42395e-05,8.27605e-06,-8.07237e-06,5
-3.12229e-05,2.74816e-06,-3.69982e-05,-1.81384e-05,-1.29747e-06,-2.50061e-05,9.12942e-06,-4.16425e-06,5
-2.99674e-05,7.75911e-06,-3.01719e-05,-1.55879e-05,9.718e-07,-2.49489e-05,8.87768e-06,-2.04496e-07,5
-2.91121e-05,1.05324e-05,-2.15827e-05,-1.05221e-05,-8.72494e-07,-1.94789e-05,8.4725e-06,2.03542e-06,5
-2.79832e-05,1.07881e-05,-1.75432e-05,-6.20385e-06,-8.29575e-06,-8.11319e-06,8.90755e-06,2.99345e-06,5
-2.7452e-05,9.41168e-06,-1.71976e-05,-2.50047e-06,-1.3653e-05,2.96669e-06,1.12433e-05,2.49048e-06,5
-2.87435e-05,7.87144e-06,-1.69862e-05,4.95065e-07,-1.2202e-05,1.32199e-05,1.30182e-05,1.26033e-06,5
-3.00463e-05,7.67136e-06,-1.65894e-05,1.98535e-06,-1.3179e-05,2.23216e-05,1.10365e-05,8.43341e-07,5
-3.02036e-05,7.88717e-06,-1.59298e-05,1.94676e-06,-1.96825e-05,3.19637e-05,7.03288e-06,8.36912e-07,5
-3.00387e-05,8.22492e-06,-1.45296e-05,-1.60816e-07,-1.81036e-05,3.80235e-05,5.45986e-06,5.97353e-07,5
-3.02032e-05,9.91546e-06,-1.2829e-05,-1.99133e-06,-3.55826e-06,3.27901e-05,7.51407e-06,1.01524e-07,5
-3.06582e-05,1.28057e-05,-1.14268e-05,-1.20622e-06,1.52039e-05,1.67932e-05,1.0253e-05,-4.47469e-07,5
-3.10495e-05,1.47079e-05,-1.01586e-05,1.60881e-07,3.39243e-05,1.85367e-06,1.11389e-05,2.1942e-07,5
-3.06292e-05,1.50029e-05,-9.2623e-06,-1.35e-06,5.77952e-05,-5.49851e-07,1.23853e-05,2.9276e-06,5
-3.003e-05,1.3878e-05,-9.70652e-06,-5.70584e-06,9.07484e-05,7.52139e-06,1.31691e-05,4.36718e-06,5
-3.08708e-05,1.26411e-05,-1.07909e-05,-1.05933e-05,0.000125746,1.5645e-05,1.08868e-05,2.66787e-06,5
-3.30047e-05,1.23258e-05,-1.08726e-05,-1.34821e-05,0.000144005,1.20857e-05,6.58572e-06,1.16787e-06,5
-3.43923e-05,1.30862e-05,-1.02835e-05,-1.3063e-05,0.000129963,-1.82964e-06,5.15552e-06,1.45155e-06,5
-3.36366e-05,1.3566e-05,-9.52878e-06,-8.24833e-06,8.935e-05,-1.43143e-05,8.79022e-06,1.38303e-06,5
-3.14261e-05,1.50597e-05,-6.27178e-06,-1.29929e-06,4.28678e-05,-1.65518e-05,1.35108e-05,8.04822e-07,5
-2.98711e-05,1.80354e-05,-3.93004e-07,3.15498e-06,8.61092e-06,-1.04503e-05,1.25714e-05,1.38852e-06,5
-2.95676e-05,2.01989e-05,4.64064e-06,3.80915e-06,-7.44883e-06,-1.26857e-06,7.23493e-06,3.25453e-06,5
-2.95292e-05,2.1035e-05,5.93606e-06,3.2544e-06,-1.24119e-05,7.19891e-06,8.06899e-06,5.17942e-06,5
-2.82631e-05,2.09391e-05,3.48939e-06,3.15944e-06,-1.66437e-05,1.40934e-05,1.90496e-05,6.31905e-06,5
-2.72489e-05,2.08643e-05,8.61541e-07,3.50718e-06,-2.37478e-05,1.75483e-05,2.92155e-05,6.5755e-06,5
-2.71707e-05,2.02498e-05,6.58112e-07,3.68015e-06,-3.77182e-05,1.41286e-05,2.92877e-05,5.42945e-06,5
-2.70433e-05,1.6207e-05,1.8946e-07,3.30345e-06,-4.59119e-05,4.67431e-06,2.15263e-05,4.49565e-06,5
-2.74228e-05,1.23282e-05,-9.15188e-07,3.24745e-06,-3.02824e-05,-5.24086e-06,1.55393e-05,5.08875e-06,5
-2.83995e-05,1.19693e-05,-7.41901e-07,4.76236e-06,-6.73108e-07,-1.34097e-05,1.6217e-05,5.61401e-06,5
-3.08164e-05,1.2854e-05,-9.031e-07,3.84765e-06,2.61252e-05,-1.97683e-05,1.95689e-05,3.97703e-06,5
-3.34965e-05,1.20274e-05,-1.13731e-06,-4.78548e-06,4.37573e-05,-2.66017e-05,2.24769e-05,1.14837e-06,5
-3.57449e-05,8.99357e-06,-4.16348e-06,-1.75355e-05,5.85368e-05,-3.46581e-05,2.22445e-05,-8.06846e-07,5
-3.55671e-05,5.95442e-06,-9.03844e-06,-2.58284e-05,6.77604e-05,-3.87006e-05,1.87965e-05,-1.62522e-06,5
-3.45926e-05,5.53639e-06,-1.19653e-05,-2.71127e-05,5.96875e-05,-3.59814e-05,1.28793e-05,-1.14124e-06,5
-3.42869e-05,7.44928e-06,-1.19933e-05,-2.63712e-05,3.61917e-05,-2.78174e-05,8.16214e-06,1.49721e-07,5
-3.29705e-05,8.18849e-06,-9.6733e-06,-2.60247e-05,7.92305e-06,-1.975e-05,7.83519e-06,2.64267e-06,5
-3.15874e-05,8.24941e-06,-7.44193e-06,-2.51859e-05,-1.55017e-05,-1.43372e-05,9.91291e-06,4.194e-06,5
-3.08672e-05,8.05762e-06,-6.48178e-06,-2.29034e-05,-2.6516e-05,-9.84933e-06,1.12889e-05,3.9132e-06,5
-2.98283e-05,7.75426e-06,-6.61292e-06,-1.77296e-05,-1.80934e-05,-3.44939e-06,1.22388e-05,3.21065e-06,5
-2.7937e-05,7.81972e-06,-5.5602e-06,-1.09088e-05,1.0208e-05,4.93265e-06,1.37131e-05,3.61904e-06,5
-2.75528e-05,8.56446e-06,-3.58487e-06,-5.24902e-06,4.97935e-05,1.32481e-05,1.57942e-05,4.18957e-06,5
-2.90588e-05,9.4426e-06,-2.15613e-06,-1.35777e-06,7.92947e-05,1.58346e-05,1.74711e-05,3.41821e-06,5
-3.08751e-05,1.00775e-05,-3.26606e-06,1.63218e-07,7.84898e-05,9.90269e-06,1.75432e-05,2.48854e-06,5
-3.1155e-05,1.03781e-05,-6.24808e-06,6.45346e-07,5.19479e-05,-6.38889e-07,1.80265e-05,2.18221e-06,5
-3.02498e-05,9.71777e-06,-9.2223e-06,1.44144e-06,2.371e-05,-9.30743e-06,2.01672e-05,2.3395e-06,5
-2.89753e-05,9.01122e-06,-1.11957e-05,2.72255e-06,8.52697e-06,-1.23945e-05,2.1541e-05,2.23878e-06,5
-2.85185e-05,9.52295e-06,-1.16115e-05,4.75133e-06,3.69553e-06,-1.20938e-05,2.08095e-05,2.46861e-06,5
-2.91392e-05,1.12861e-05,-1.11619e-05,6.26205e-06,8.49299e-07,-1.23696e-05,1.9778e-05,2.17909e-06,5
-2.93233e-05,1.23889e-05,-9.71819e-06,5.01675e-06,-1.82342e-06,-1.40397e-05,1.89913e-05,1.02818e-06,5
-2.86874e-05,1.13417e-05,-6.60022e-06,5.54825e-07,-1.48547e-06,-1.56072e-05,1.89159e-05,-5.46258e-08,5
-2.92939e-05,9.96586e-06,-2.58135e-06,-4.14616e-06,6.74942e-07,-1.72466e-05,1.85167e-05,-7.9346e-07,5
-3.10792e-05,1.04483e-05,5.10815e-07,-8.11222e-06,3.50325e-06,-1.85133e-05,1.60411e-05,-1.76815e-06,5
-3.33818e-05,1.06756e-05,1.22104e-06,-1.11063e-05,3.59748e-06,-2.03672e-05,1.11654e-05,-2.73228e-06,5
-3.29719e-05,9.44227e-06,4.71548e-07,-1.3732e-05,1.06415e-07,-2.35003e-05,7.46364e-06,-4.00045e-06,5
-3.05938e-05,8.3505e-06,-2.26571e-06,-1.78712e-05,-2.09214e-06,-2.7575e-05,4.35697e-06,-5.82701e-06,5
-3.00287e-05,7.71155e-06,-6.66864e-06,-1.9173e-05,-3.25114e-06,-3.30565e-05,7.00133e-07,-8.31074e-06,5
-2.90926e-05,7.73248e-06,-7.88013e-06,-1.37565e-05,-2.22724e-06,-3.80928e-05,9.16047e-07,-9.77479e-06,5
-2.86312e-05,9.74574e-06,-4.79129e-06,-4.62794e-06,1.44732e-06,-3.93527e-05,3.41152e-06,-7.96337e-06,5
-2.68052e-05,1.3407e-05,-1.03793e-06,4.21731e-06,4.65816e-06,-3.68453e-05,5.6827e-06,-4.50347e-06,5
-2.52759e-05,1.52479e-05,5.78437e-08,1.08092e-05,6.55986e-06,-3.18412e-05,7.57579e-06,-2.93752e-06,5
-2.66055e-05,1.34403e-05,-1.48532e-06,1.58485e-05,6.64803e-06,-2.61329e-05,8.26938e-06,-3.39843e-06,5
-2.88631e-05,1.12686e-05,-4.70746e-06,2.15867e-05,6.74347e-06,-2.29812e-05,6.18896e-06,-3.2254e-06,5
-2.99125e-05,1.09168e-05,-7.22133e-06,2.62623e-05,6.02332e-06,-2.30515e-05,6.05025e-06,-1.28533e-06,5
-3.00967e-05,1.03692e-05,-7.22797e-06,2.69629e-05,1.91923e-06,-2.39806e-05,1.50989e-05,1.44551e-06,5
-3.04781e-05,8.38353e-06,-5.3228e-06,2.32746e-05,-4.97523e-06,-2.42136e-05,2.93222e-05,3.35118e-06,5
-3.07469e-05,7.37444e-06,-3.01723e-06,1.3949e-05,-1.27904e-05,-2.43278e-05,3.7866e-05,4.35351e-06,5
-3.07268e-05,8.06832e-06,-2.38858e-06,-2.73464e-06,-2.28746e-05,-2.5648e-05,3.70147e-05,4.64822e-06,5
-3.03534e-05,8.86709e-06,-4.72264e-06,-2.31861e-05,-3.50361e-05,-2.69136e-05,3.28747e-05,4.5666e-06,5
-3.07424e-05,8.59136e-06,-9.87885e-06,-3.91118e-05,-4.45901e-05,-2.70084e-05,2.83416e-05,3.44705e-06,5
-3.16149e-05,7.25175e-06,-1.64472e-05,-4.42996e-05,-4.64346e-05,-2.55113e-05,2.19286e-05,1.73937e-06,5
-3.27169e-05,5.69248e-06,-2.05746e-05,-3.87209e-05,-3.97505e-05,-2.13596e-05,1.39222e-05,5.57573e-07,5
-3.3843e-05,5.50161e-06,-1.96117e-05,-2.91131e-05,-2.79691e-05,-1.35364e-05,7.62931e-06,1.32922e-07,5
-3.52012e-05,6.74527e-06,-1.57476e-05,-2.05904e-05,-1.70505e-05,-3.75305e-06,5.24098e-06,-9.66247e-07,5
-3.56099e-05,7.01435e-06,-1.2359e-05,-1.42886e-05,-1.36068e-05,3.58672e-06,4.86464e-06,-2.29847e-06,5
-3.43782e-05,6.04128e-06,-1.03645e-05,-1.10579e-05,-2.01188e-05,6.81509e-06,3.94654e-06,-2.68173e-06,5
-3.28077e-05,5.42764e-06,-9.45458e-06,-1.13832e-05,-2.94362e-05,1.04604e-05,5.33166e-06,-1.95717e-06,5
-3.19533e-05,7.11535e-06,-9.63845e-06,-1.45222e-05,-2.72436e-05,1.83244e-05,1.1309e-05,6.75111e-07,5
-3.14422e-05,1.04567e-05,-1.07907e-05,-1.76798e-05,-8.93264e-06,2.36762e-05,1.54055e-05,2.30891e-06,5
-3.22311e-05,1.36502e-05,-1.16033e-05,-1.68476e-05,1.55892e-05,2.17343e-05,1.39906e-05,1.4903e-06,5
-3.18495e-05,1.82588e-05,-1.12915e-05,-9.70559e-06,3.53199e-05,1.39839e-05,1.08173e-05,8.13323e-07,5
-3.00002e-05,2.55881e-05,-9.10279e-06,3.01872e-06,4.21722e-05,4.04152e-06,1.01141e-05,1.78056e-06,5
-3.09792e-05,3.37485e-05,-6.70664e-06,1.54023e-05,4.03571e-05,-2.71404e-06,9.46433e-06,2.79171e-06,5
-3.28177e-05,3.67968e-05,-5.7073e-06,2.17985e-05,4.21524e-05,-2.26927e-06,8.95366e-06,2.35752e-06,5
-3.33199e-05,2.91889e-05,-4.77239e-06,2.14851e-05,4.79527e-05,7.39824e-07,1.16403e-05,1.18203e-06,5
-3.31912e-05,1.58756e-05,-4.61846e-06,1.79831e-05,5.44476e-05,-1.75851e-06,1.35924e-05,-4.63362e-07,5
-3.18635e-05,6.96592e-06,-3.44049e-06,1.54473e-05,5.54996e-05,-1.10888e-05,1.22203e-05,-4.69451e-07,5
-2.95856e-05,6.42502e-06,-1.02012e-06,1.68332e-05,4.87652e-05,-2.37103e-05,8.53075e-06,1.67245e-06,5
-2.77757e-05,9.07989e-06,1.32981e-06,2.17352e-05,3.82211e-05,-3.00642e-05,5.6755e-06,3.70893e-06,5
-2.67048e-05,1.04576e-05,2.78381e-06,2.57288e-05,3.23655e-05,-2.37208e-05,4.86428e-06,4.96461e-06,5
-2.6263e-05,1.00529e-05,2.05645e-06,2.6308e-05,3.44624e-05,-1.13345e-05,3.74413e-06,4.14609e-06,5
-2.70701e-05,8.07815e-06,-1.53823e-06,2.16947e-05,3.81262e-05,-6.21084e-06,1.18499e-06,1.21072e-06,5
-2.882e-05,5.85951e-06,-6.21744e-06,1.10925e-05,3.79222e-05,-1.11383e-05,3.07051e-08,-1.99841e-06,5
-2.98982e-05,5.59256e-06,-9.65381e-06,-4.41535e-06,3.1448e-05,-1.80223e-05,8.02823e-07,-3.70241e-06,5
-2.97664e-05,7.76084e-06,-1.17788e-05,-1.85449e-05,2.39397e-05,-2.03751e-05,1.01904e-06,-4.32075e-06,5
-2.91165e-05,1.10229e-05,-1.27296e-05,-2.75785e-05,2.82595e-05,-1.92143e-05,1.8424e-06,-4.0482e-06,5
-3.02412e-05,1.42241e-05,-1.29433e-05,-3.40538e-05,5.05119e-05,-1.87907e-05,5.06712e-06,-2.6765e-06,5
-3.3016e-05,1.76762e-05,-1.22934e-05,-3.84224e-05,7.09145e-05,-1.77486e-05,1.05948e-05,-1.05461e-06,5
-3.46864e-05,2.23868e-05,-1.11825e-05,-3.63021e-05,6.19393e-05,-1.25773e-05,1.818e-05,7.46154e-07,5
-3.35602e-05,2.53455e-05,-1.01434e-05,-2.88668e-05,1.58418e-05,-5.3022e-06,2.62212e-05,3.23915e-06,5
-3.10068e-05,2.27728e-05,-1.11964e-05,-2.44388e-05,-4.35393e-05,-1.85388e-06,2.80409e-05,5.63179e-06,5
-3.02866e-05,1.58663e-05,-1.44257e-05,-2.44322e-05,-8.66753e-05,-3.63297e-06,2.11332e-05,4.32237e-06,5
-3.25524e-05,9.69267e-06,-1.73386e-05,-2.46763e-05,-0.000111319,-5.88033e-06,1.03168e-05,-4.73476e-07,5
-3.49715e-05,6.09785e-06,-1.83469e-05,-2.03786e-05,-0.000120314,-4.06832e-06,1.7037e-06,-3.86844e-06,5
-3.5237e-05,5.10374e-06,-1.64686e-05,-1.05616e-05,-9.74066e-05,-2.52007e-06,-9.47227e-07,-4.83598e-06,5
-3.43298e-05,5.77734e-06,-1.18017e-05,-2.2427e-06,-3.86732e-05,-6.85988e-06,2.24645e-07,-4.99957e-06,5
-3.41664e-05,6.24933e-06,-7.22938e-06,2.042e-06,3.18303e-05,-1.39088e-05,1.0228e-06,-4.3184e-06,5
-3.49871e-05,4.13251e-06,-3.73239e-06,6.72426e-06,9.1672e-05,-1.81691e-05,1.74104e-07,-3.82587e-06,5
-3.48905e-05,2.41611e-06,-3.31668e-06,1.20942e-05,0.000118398,-1.89287e-05,1.04579e-06,-3.62278e-06,5
-3.33779e-05,3.65151e-06,-5.49719e-06,1.51504e-05,0.000105813,-1.69448e-05,5.62003e-06,-2.44899e-06,5
-3.08699e-05,4.42012e-06,-6.22108e-06,1.37546e-05,6.93401e-05,-1.26709e-05,9.60081e-06,1.23584e-07,5
-2.82555e-05,4.07941e-06,-7.00591e-06,9.69774e-06,2.45226e-05,-9.17007e-06,1.10421e-05,2.47665e-06,5
-2.80535e-05,3.56398e-06,-9.0536e-06,3.05585e-06,-9.65955e-06,-1.17172e-05,1.08208e-05,2.64433e-06,5
-2.89228e-05,3.23116e-06,-1.21056e-05,-8.2869e-06,-1.91545e-05,-2.00922e-05,8.79591e-06,1.8351e-06,5
-2.94888e-05,3.47485e-06,-1.38014e-05,-2.07005e-05,3.81818e-07,-2.73292e-05,6.33618e-06,6.65563e-07,5
-3.04536e-05,4.71764e-06,-1.4266e-05,-2.60302e-05,2.6993e-05,-2.95032e-05,5.49595e-06,-8.53608e-07,5
-3.10493e-05,5.48135e-06,-1.54813e-05,-2.40621e-05,3.85089e-05,-2.57826e-05,6.03203e-06,-2.27245e-06,5
-3.16068e-05,5.8871e-06,-1.66533e-05,-2.11988e-05,3.28191e-05,-2.15891e-05,6.80751e-06,-3.05338e-06,5
-3.20234e-05,7.26651e-06,-1.63881e-05,-2.39125e-05,1.9837e-05,-1.64356e-05,7.48494e-06,-2.3632e-06,5
-3.2493e-05,9.33667e-06,-1.45401e-05,-3.01716e-05,6.72494e-06,-5.76557e-06,8.31391e-06,-2.90018e-07,5
-3.17723e-05,1.07312e-05,-1.14143e-05,-3.14892e-05,-6.02688e-06,6.80052e-06,1.02815e-05,2.16636e-06,5
-3.00835e-05,1.23817e-05,-7.44328e-06,-2.38985e-05,-1.12003e-05,1.39499e-05,1.25304e-05,4.02267e-06,5
-2.89422e-05,1.4075e-05,-4.4066e-06,-1.16954e-05,-6.16564e-06,1.20576e-05,1.38356e-05,4.73858e-06,5
-2.89102e-05,1.30508e-05,-3.72805e-06,-2.1074e-06,5.11898e-06,6.92318e-06,1.42452e-05,4.32732e-06,5
-2.92564e-05,9.33235e-06,-4.79509e-06,4.84295e-06,1.88414e-05,4.47778e-06,1.34245e-05,3.42371e-06,5
-2.9295e-05,6.73669e-06,-5.5538e-06,1.02575e-05,3.82482e-05,2.53693e-06,1.04378e-05,1.65338e-06,5
-3.00788e-05,6.8496e-06,-5.721e-06,1.33562e-05,6.13812e-05,-2.27306e-06,6.74781e-06,-6.78874e-07,5
-3.06224e-05,6.86338e-06,-5.09223e-06,1.77324e-05,8.57789e-05,-5.59241e-06,5.04509e-06,-1.63837e-06,5
-2.87882e-05,7.4934e-06,-2.78208e-06,2.6655e-05,0.000106016,-4.98889e-06,7.2456e-06,-6.32894e-07,5
-2.54874e-05,8.3426e-06,-8.78386e-07,3.21276e-05,0.000105664,-3.22252e-06,1.18929e-05,1.03572e-06,5
-2.30982e-05,8.5513e-06,-1.09786e-06,2.95153e-05,7.34267e-05,-3.98989e-06,1.3757e-05,2.64938e-06,5
-2.25927e-05,9.22149e-06,-7.97462e-07,2.41412e-05,2.56837e-05,-7.72827e-06,9.86448e-06,2.36252e-06,5
-2.41986e-05,9.49303e-06,4.12581e-07,2.11889e-05,-1.08539e-05,-1.3493e-05,3.07721e-06,-1.02219e-06,5
-2.56418e-05,1.0659e-05,1.16893e-06,1.8295e-05,-2.23578e-05,-1.90517e-05,-4.32677e-06,-5.02344e-06,5
-2.61248e-05,1.43968e-05,-1.27519e-06,9.32118e-06,-1.19824e-05,-2.07633e-05,-1.02804e-05,-7.29247e-06,5
-2.75466e-05,1.57646e-05,-6.91381e-06,-3.52245e-06,1.32462e-06,-1.7661e-05,-8.97683e-06,-6.67175e-06,5
-2.8563e-05,1.3151e-05,-9.54746e-06,-1.20365e-05,1.32423e-07,-1.41105e-05,1.15401e-06,-3.52276e-06,5
-2.94364e-05,9.82885e-06,-8.48215e-06,-1.85823e-05,-2.53414e-05,-1.61469e-05,1.67152e-05,7.07831e-07,5
-3.19417e-05,6.48833e-06,-7.69307e-06,-2.88257e-05,-6.99276e-05,-2.32361e-05,2.85808e-05,2.89208e-06,5
-3.32319e-05,4.47108e-06,-8.5469e-06,-3.75013e-05,-0.000104995,-2.79551e-05,3.1359e-05,2.59917e-06,5
-3.11479e-05,3.32944e-06,-1.13217e-05,-3.90707e-05,-0.000106572,-2.49127e-05,2.95876e-05,2.11366e-06,5
-2.7411e-05,1.58672e-06,-1.59143e-05,-3.31479e-05,-7.75539e-05,-1.90261e-05,2.6354e-05,1.3805e-06,5
-2.52693e-05,-9.09717e-07,-2.04848e-05,-2.36262e-05,-2.88742e-05,-1.57756e-05,2.31438e-05,1.84796e-06,5
-2.55581e-05,-2.49777e-06,-2.11153e-05,-1.51417e-05,3.27582e-05,-1.5017e-05,2.1215e-05,2.96142e-06,5
-2.76304e-05,-2.6245e-06,-1.78005e-05,-9.13387e-06,8.79966e-05,-1.42432e-05,1.91668e-05,2.73602e-06,5
-2.98488e-05,-7.60795e-07,-1.42811e-05,-6.198e-06,0.000108337,-1.24334e-05,1.61142e-05,1.11983e-06,5
-3.20478e-05,1.89223e-06,-1.3364e-05,-6.01138e-06,8.643e-05,-9.72009e-06,1.26892e-05,-8.60717e-07,5
-3.40197e-05,5.33249e-06,-1.21065e-05,-5.74722e-06,4.55008e-05,-4.9164e-06,7.95237e-06,-2.39029e-06,5
-3.55696e-05,9.32986e-06,-6.64431e-06,-2.31026e-06,1.68707e-05,3.68477e-06,1.73784e-06,-3.59012e-06,5
-3.64311e-05,1.24554e-05,-1.07368e-06,4.1342e-06,9.93556e-06,1.44573e-05,-1.73886e-06,-4.34658e-06,5
-3.56849e-05,1.49289e-05,1.87366e-07,1.03191e-05,1.68056e-05,2.17818e-05,3.00597e-06,-4.09686e-06,5
-3.37106e-05,1.62282e-05,-2.00474e-06,1.21091e-05,3.3833e-05,2.24893e-05,1.33093e-05,-2.5311e-06,5
-3.21748e-05,1.58029e-05,-3.76804e-06,6.80026e-06,6.4097e-05,2.01213e-05,2.06298e-05,-1.25337e-06,5
-3.28809e-05,1.30402e-05,-4.64243e-06,-1.38737e-06,9.3886e-05,1.7374e-05,2.19586e-05,-5.64396e-07,5
-3.51606e-05,9.949e-06,-5.61373e-06,-4.74242e-06,9.65048e-05,8.87357e-06,1.99772e-05,-5.96443e-07,5
-3.81894e-05,7.46557e-06,-7.08922e-06,-2.27011e-06,6.41646e-05,-6.2698e-06,1.68964e-05,-1.14691e-06,5
-3.926e-05,5.19926e-06,-7.66984e-06,1.851e-06,2.11174e-05,-1.58674e-05,1.55665e-05,-1.09761e-06,5
-3.63273e-05,3.7351e-06,-7.48027e-06,6.09548e-06,-9.72322e-06,-1.49581e-05,1.82807e-05,-3.23803e-07,5
-3.20173e-05,5.2677e-06,-7.48245e-06,9.99142e-06,-2.78887e-05,-1.22935e-05,2.12718e-05,1.3475e-06,5
-2.9122e-05,8.44046e-06,-4.80711e-06,1.28205e-05,-3.33157e-05,-1.18255e-05,2.19265e-05,2.19176e-06,5
-2.83715e-05,1.13348e-05,-1.92496e-06,1.37585e-05,-2.18821e-05,-1.27306e-05,2.1291e-05,1.1342e-06,5
-2.86592e-05,1.30161e-05,-3.96741e-06,1.3627e-05,3.74026e-06,-1.52666e-05,1.93975e-05,-8.75058e-07,5
-2.77847e-05,1.40703e-05,-6.82699e-06,1.38383e-05,2.77339e-05,-1.81239e-05,1.5894e-05,-2.07046e-06,5
-2.63785e-05,1.46401e-05,-7.85933e-06,1.23438e-05,3.43833e-05,-1.95193e-05,1.35278e-05,-1.31267e-06,5
-2.56164e-05,1.49099e-05,-1.04763e-05,9.2531e-06,2.55898e-05,-1.77047e-05,1.40833e-05,-3.89185e-07,5
-2.66875e-05,1.57929e-05,-1.11414e-05,8.04466e-06,1.28856e-05,-1.11739e-05,1.53774e-05,5.90544e-07,5
-2.71108e-05,1.66132e-05,-8.18221e-06,8.11906e-06,2.38309e-06,-1.17254e-06,1.86558e-05,2.45835e-06,5
-2.6517e-05,1.83168e-05,-4.93859e-06,8.02551e-06,-6.07931e-06,4.77991e-06,2.22896e-05,3.97566e-06,5
-2.69854e-05,2.04644e-05,-4.25685e-06,7.45822e-06,-1.16013e-05,-4.87783e-07,2.00256e-05,2.94807e-06,5
-2.7872e-05,2.12072e-05,-4.24354e-06,8.14797e-06,-1.6673e-05,-1.25698e-05,1.36965e-05,6.31179e-07,5
-2.71327e-05,1.97162e-05,-2.83683e-06,1.05617e-05,-1.91289e-05,-2.25411e-05,1.02528e-05,1.79436e-07,5
-2.5046e-05,1.85203e-05,-1.00444e-06,1.17573e-05,-1.85899e-05,-2.8237e-05,1.07121e-05,1.67114e-06,5
-2.42907e-05,1.84628e-05,9.76722e-07,9.80696e-06,-1.74843e-05,-3.18162e-05,1.2409e-05,3.17981e-06,5
-2.3999e-05,1.87812e-05,8.02395e-07,3.79131e-06,-1.55946e-05,-3.30025e-05,1.27414e-05,3.40202e-06,5
-2.34874e-05,1.89707e-05,-1.83908e-06,-4.54848e-06,-1.65533e-05,-3.11709e-05,9.80418e-06,1.44814e-06,5
-2.38619e-05,1.79094e-05,-5.2869e-06,-1.28975e-05,-2.21641e-05,-2.64553e-05,6.20031e-06,-4.81571e-07,5
-2.60799e-05,1.51387e-05,-8.04147e-06,-1.93261e-05,-2.92235e-05,-2.02566e-05,6.80999e-06,3.94567e-07,5
-2.88282e-05,1.27639e-05,-1.0327e-05,-2.04601e-05,-3.07579e-05,-1.54066e-05,1.07668e-05,2.59472e-06,5
-3.07621e-05,1.23376e-05,-1.14588e-05,-1.57199e-05,-2.52179e-05,-1.24913e-05,1.36024e-05,4.3091e-06,5
-3.04856e-05,1.25341e-05,-1.1571e-05,-1.19322e-05,-1.48278e-05,-8.61376e-06,1.48923e-05,5.44436e-06,5
-2.82816e-05,1.2564e-05,-1.16354e-05,-1.27013e-05,-3.45218e-06,-1.77685e-06,1.59155e-05,6.75128e-06,5
-2.59626e-05,1.3074e-05,-1.18969e-05,-1.45251e-05,4.54504e-06,3.52317e-06,1.6421e-05,6.60278e-06,5
-2.58169e-05,1.38536e-05,-1.24424e-05,-1.53775e-05,5.19742e-06,4.76483e-06,1.56634e-05,4.08417e-06,5
-2.72148e-05,1.37948e-05,-1.21064e-05,-1.47218e-05,5.95583e-06,6.68197e-06,1.46551e-05,1.85077e-06,5
-2.87058e-05,1.34507e-05,-1.15696e-05,-1.2362e-05,1.24316e-05,1.13155e-05,1.47216e-05,8.2953e-07,5
-2.99603e-05,1.28343e-05,-1.1313e-05,-1.02846e-05,2.12163e-05,1.59486e-05,1.61926e-05,-1.72598e-07,5
-2.96515e-05,1.35571e-05,-8.64587e-06,-7.6519e-06,2.85782e-05,1.72829e-05,2.02256e-05,8.1669e-07,5
-2.75219e-05,1.70481e-05,-3.12578e-06,-2.26092e-06,3.1934e-05,1.83295e-05,2.69315e-05,3.84024e-06,5
-2.48754e-05,2.03875e-05,2.07114e-06,4.41901e-06,3.03896e-05,2.44988e-05,2.85857e-05,4.34307e-06,5
-2.54314e-05,2.16393e-05,4.45974e-06,7.77655e-06,2.69618e-05,2.64289e-05,2.03537e-05,1.01979e-06,5
-2.85432e-05,2.22649e-05,2.99882e-06,7.49329e-06,2.83552e-05,1.96729e-05,9.52921e-06,-1.81642e-06,5
-3.11506e-05,2.27275e-05,-1.50819e-07,4.7864e-06,3.80367e-05,1.555e-05,4.04147e-06,-2.27282e-06,5
-3.35148e-05,2.20132e-05,-3.5866e-06,-3.24861e-06,5.81741e-05,1.45664e-05,3.09644e-06,-1.30246e-06,5
-3.44061e-05,1.98865e-05,-6.75462e-06,-1.4576e-05,9.29534e-05,9.33606e-06,3.65622e-06,-3.76646e-07,5
-3.33904e-05,1.84416e-05,-7.64447e-06,-1.99601e-05,0.0001293,2.20056e-06,6.9239e-06,3.70465e-07,5
-3.17246e-05,2.01973e-05,-6.26522e-06,-1.57273e-05,0.000134504,-2.7141e-06,1.03199e-05,1.34303e-06,5
-2.98277e-05,2.24889e-05,-3.74059e-06,-9.64781e-06,0.000104035,-5.7563e-06,1.18507e-05,2.06877e-06,5
-2.79937e-05,2.39946e-05,-1.69181e-06,-7.1279e-06,5.92006e-05,-9.2061e-06,1.25432e-05,2.20243e-06,5
-2.67225e-05,2.54882e-05,-1.62939e-06,-7.76257e-06,1.98027e-05,-1.48316e-05,1.38039e-05,1.96964e-06,5
-2.67686e-05,2.89508e-05,-3.39504e-06,-8.75066e-06,-4.87466e-06,-1.90699e-05,1.5369e-05,1.56658e-06,5
-2.73429e-05,3.42258e-05,-6.49221e-06,-9.48438e-06,-1.79027e-05,-2.03541e-05,1.58669e-05,-1.76383e-07,5
-2.76012e-05,3.80257e-05,-9.65001e-06,-1.06088e-05,-2.70635e-05,-2.25708e-05,1.46421e-05,-2.32619e-06,5
-2.8544e-05,3.86834e-05,-1.22445e-05,-9.93812e-06,-3.56802e-05,-2.91266e-05,1.24716e-05,-3.39773e-06,5
-3.03767e-05,3.52064e-05,-1.38709e-05,-7.03631e-06,-4.08727e-05,-4.10497e-05,1.12994e-05,-3.07445e-06,5
-3.19273e-05,2.88713e-05,-1.42013e-05,-6.1505e-06,-4.16235e-05,-5.56073e-05,1.09739e-05,-2.85764e-06,5
-3.30485e-05,2.18318e-05,-1.36578e-05,-1.22318e-05,-4.09541e-05,-6.61767e-05,1.10571e-05,-2.85268e-06,5
-3.37808e-05,1.59548e-05,-1.32501e-05,-2.2474e-05,-4.06558e-05,-6.79516e-05,1.26332e-05,-2.0767e-06,5
-3.49875e-05,1.00485e-05,-1.3352e-05,-2.85388e-05,-3.72e-05,-5.98766e-05,1.57216e-05,4.71302e-07,5
-3.49251e-05,3.67613e-06,-1.32009e-05,-2.79375e-05,-2.7152e-05,-4.20952e-05,1.82065e-05,2.82055e-06,5
-3.22723e-05,-3.60807e-07,-1.13593e-05,-2.55231e-05,-9.31213e-06,-1.75309e-05,1.96269e-05,3.30209e-06,5
-2.98381e-05,-8.13132e-07,-7.84808e-06,-2.27321e-05,1.13072e-05,2.42493e-06,2.10835e-05,4.31202e-06,5
-2.87175e-05,2.82161e-07,-6.58741e-06,-1.92405e-05,2.09913e-05,3.8867e-06,2.29452e-05,5.32188e-06,5
-2.86019e-05,1.11929e-06,-7.5783e-06,-1.71066e-05,1.41968e-05,-9.37921e-06,2.32122e-05,5.72722e-06,5
-2.93589e-05,6.36745e-07,-7.17847e-06,-1.7117e-05,1.87485e-06,-2.18126e-05,2.15162e-05,5.53612e-06,5
-3.08729e-05,8.3646e-07,-6.34846e-06,-1.90568e-05,-4.45641e-06,-2.51284e-05,1.65539e-05,3.46283e-06,5
-3.24288e-05,5.11277e-06,-4.62504e-06,-1.89574e-05,7.29813e-07,-2.22933e-05,1.0639e-05,6.3843e-07,5
-3.34588e-05,1.10863e-05,-2.8019e-06,-1.44214e-05,1.48916e-05,-1.89724e-05,7.15232e-06,2.29794e-07,5
-3.31181e-05,1.39781e-05,-1.92333e-06,-9.06657e-06,2.91196e-05,-1.48988e-05,5.8565e-06,9.604e-07,5
-3.20419e-05,1.38208e-05,-4.38071e-07,-8.90978e-06,3.31437e-05,-9.27477e-06,8.13558e-06,2.4466e-07,5
-3.04826e-05,1.40807e-05,-7.17408e-07,-1.42523e-05,2.55074e-05,-3.03909e-06,1.15042e-05,-9.98724e-07,5
-2.86863e-05,1.55869e-05,-2.43674e-06,-1.92176e-05,1.74943e-05,1.79901e-06,1.34789e-05,-8.81279e-07,5
-2.81679e-05,1.68214e-05,-4.5174e-06,-1.96709e-05,1.87447e-05,6.25096e-06,1.6751e-05,1.56925e-06,5
-2.84052e-05,1.70518e-05,-5.77208e-06,-1.34765e-05,2.8509e-05,9.7607e-06,2.08036e-05,3.72366e-06,5
-2.86655e-05,1.48873e-05,-7.01419e-06,-3.52184e-06,3.80818e-05,1.05394e-05,1.95945e-05,4.89111e-06,5
-2.79401e-05,1.20211e-05,-9.24939e-06,5.28636e-06,4.37035e-05,1.19705e-05,1.13772e-05,3.2935e-06,5
-2.76048e-05,1.09136e-05,-1.23481e-05,9.68667e-06,4.46686e-05,1.30755e-05,2.25364e-06,8.56805e-07,5
-2.89288e-05,1.25153e-05,-1.49625e-05,8.68502e-06,4.13132e-05,7.52406e-06,-6.86766e-07,4.04126e-07,5
-3.13604e-05,1.61532e-05,-1.81887e-05,3.73031e-06,3.61722e-05,-5.2362e-06,1.21282e-06,5.62366e-08,5
-3.35137e-05,1.88069e-05,-2.30063e-05,-2.79904e-06,3.18785e-05,-1.69304e-05,3.12367e-06,-1.40474e-06,5
-3.52684e-05,1.92798e-05,-2.50589e-05,-8.64477e-06,2.87139e-05,-2.076e-05,3.92801e-06,-3.90465e-06,5
-3.62905e-05,1.78936e-05,-2.27568e-05,-1.04442e-05,2.49196e-05,-1.8282e-05,4.67762e-06,-5.91284e-06,5
-3.56028e-05,1.55876e-05,-1.94864e-05,-7.4819e-06,2.01225e-05,-1.5946e-05,4.99608e-06,-7.65151e-06,5
-3.43396e-05,1.14828e-05,-1.95513e-05,-4.67854e-06,1.48113e-05,-1.5792e-05,5.5672e-06,-7.48413e-06,5
-3.38011e-05,6.03501e-06,-2.14202e-05,-3.97962e-06,1.13858e-05,-1.56443e-05,7.62946e-06,-5.31714e-06,5
-3.46712e-05,2.37514e-06,-2.29344e-05,-3.55356e-06,1.05126e-05,-1.42793e-05,9.26965e-06,-2.84579e-06,5
-3.58953e-05,3.10282e-06,-2.21952e-05,-2.33543e-06,1.05257e-05,-1.30216e-05,9.47098e-06,-1.46062e-06,5
-3.68396e-05,6.19128e-06,-1.83834e-05,-5.89582e-07,9.11851e-06,-1.54595e-05,8.64693e-06,-8.96281e-07,5
-3.73614e-05,9.5022e-06,-1.36764e-05,2.43142e-06,5.41045e-06,-2.13887e-05,6.19117e-06,-1.28685e-06,5
-3.70166e-05,1.4752e-05,-1.1175e-05,5.12919e-06,-9.71939e-06,-2.54286e-05,3.03337e-06,-2.13588e-06,5
-3.47977e-05,2.50406e-05,-9.91839e-06,5.20767e-06,-4.38144e-05,-2.34851e-05,4.2412e-06,-2.36878e-06,5
-3.22005e-05,3.81778e-05,-7.29003e-06,4.52467e-06,-7.24475e-05,-1.41716e-05,8.37354e-06,-6.85402e-07,5
-3.16447e-05,4.43274e-05,-3.28973e-06,3.79613e-06,-7.24766e-05,-1.81095e-06,1.12472e-05,3.07066e-06,5
-3.06939e-05,3.74507e-05,-8.56796e-07,1.89746e-07,-6.29748e-05,5.44186e-06,1.56694e-05,6.89119e-06,5
-2.88152e-05,2.62973e-05,-2.1428e-06,-2.76642e-06,-5.37499e-05,3.03105e-06,2.09924e-05,7.48828e-06,5
-2.87939e-05,2.03296e-05,-4.01958e-06,-1.49324e-07,-2.33794e-05,-4.99417e-06,2.35016e-05,4.46541e-06,5
-2.95313e-05,1.67976e-05,-4.46468e-06,3.47942e-06,2.42703e-05,-1.02836e-05,2.00149e-05,1.43607e-06,5
-2.97553e-05,1.38094e-05,-5.24155e-06,4.47383e-06,6.98811e-05,-1.13164e-05,1.36459e-05,-1.29207e-06,5
-3.04578e-05,1.22011e-05,-6.74961e-06,4.59774e-06,0.000108391,-1.09452e-05,8.83495e-06,-3.62083e-06,5
-3.1642e-05,1.24152e-05,-8.23813e-06,6.67893e-06,0.000129451,-1.11516e-05,4.66977e-06,-3.94513e-06,5
-3.15761e-05,1.46845e-05,-6.87154e-06,1.06152e-05,0.000119941,-1.18601e-05,6.11815e-07,-3.19322e-06,5
-3.07799e-05,1.77923e-05,-3.26573e-06,1.40529e-05,8.33179e-05,-1.25938e-05,-4.8606e-06,-3.72911e-06,5
-2.9088e-05,2.05165e-05,-1.85573e-06,1.45652e-05,3.92006e-05,-1.22906e-05,-8.89947e-06,-4.40858e-06,5
-2.68298e-05,2.0105e-05,-2.25122e-06,1.21693e-05,2.67074e-06,-1.13721e-05,-8.94725e-06,-3.91973e-06,5
-2.57843e-05,1.71212e-05,-3.71295e-06,7.26308e-06,-1.73839e-05,-1.16419e-05,-3.87842e-06,-2.28172e-06,5
-2.67978e-05,1.30853e-05,-4.36667e-06,1.87365e-06,-1.73778e-05,-1.41777e-05,6.48849e-06,-4.05926e-07,5
-2.92139e-05,9.03892e-06,-4.20332e-06,-1.36139e-06,-2.72894e-06,-1.8123e-05,1.79531e-05,3.56001e-07,5
-3.04339e-05,6.75081e-06,-4.98361e-06,-2.34733e-06,1.70181e-05,-2.15111e-05,2.52899e-05,7.6955e-07,5
-2.96987e-05,5.85389e-06,-6.82674e-06,-2.83601e-06,3.03517e-05,-2.33537e-05,2.65506e-05,1.69282e-06,5
-2.82343e-05,5.89438e-06,-7.75731e-06,-3.31126e-06,2.64956e-05,-2.39663e-05,2.26076e-05,1.10103e-06,5
-2.82135e-05,5.95825e-06,-7.17166e-06,-2.67027e-06,3.78877e-06,-2.31247e-05,1.69396e-05,-8.21772e-07,5
-2.91505e-05,6.56926e-06,-7.49856e-06,-2.9875e-06,-2.45641e-05,-2.02271e-05,1.42075e-05,-1.78736e-06,5
-2.95943e-05,7.61997e-06,-9.79915e-06,-7.14238e-06,-5.09076e-05,-1.81529e-05,1.40668e-05,-1.50155e-06,5
-2.91747e-05,8.24306e-06,-1.21612e-05,-1.67828e-05,-7.38502e-05,-2.03998e-05,1.26837e-05,-8.8933e-07,5
-2.85962e-05,8.3029e-06,-1.18674e-05,-2.6907e-05,-7.80028e-05,-2.56466e-05,1.07211e-05,-8.00519e-07,5
-2.70742e-05,8.62901e-06,-8.28787e-06,-2.73949e-05,-4.62399e-05,-2.65501e-05,1.18574e-05,-8.42784e-07,5
-2.43106e-05,8.53705e-06,-2.55909e-06,-1.49126e-05,1.31166e-05,-1.77453e-05,1.63347e-05,-4.08616e-07,5
-2.22637e-05,8.7876e-06,2.31794e-06,4.90771e-06,7.52731e-05,-3.85033e-06,2.28936e-05,1.30798e-06,5
-2.21681e-05,9.29498e-06,3.72921e-06,2.25596e-05,0.000117927,5.28625e-06,2.50821e-05,2.51947e-06,5
-2.36373e-05,9.18094e-06,3.06607e-06,2.93318e-05,0.000130494,6.19819e-06,2.06369e-05,1.3321e-06,5
-2.57689e-05,9.27167e-06,2.57574e-06,2.70785e-05,0.000106801,6.16362e-06,1.12405e-05,-1.69242e-06,5
-2.70073e-05,1.05171e-05,3.64934e-07,1.83153e-05,5.16181e-05,7.10903e-06,2.24801e-06,-3.0937e-06,5
-2.75071e-05,1.36921e-05,-5.68423e-06,1.18085e-06,-6.94596e-06,1.89114e-06,-5.1877e-08,-4.98945e-07,5
-2.88887e-05,1.50958e-05,-1.18965e-05,-2.52208e-05,-4.4346e-05,-7.44409e-06,2.05588e-06,1.05767e-06,5
-3.03447e-05,1.35081e-05,-1.49729e-05,-4.88866e-05,-6.21647e-05,-1.60982e-05,5.36516e-06,3.13259e-07,5
-3.15718e-05,1.0772e-05,-1.49459e-05,-5.65529e-05,-6.98092e-05,-2.21916e-05,7.24578e-06,-8.47259e-07,5
-3.14039e-05,8.05521e-06,-1.23333e-05,-5.11571e-05,-5.98906e-05,-2.59568e-05,1.03358e-05,-1.76659e-06,5
-2.97386e-05,7.53997e-06,-9.8116e-06,-4.03573e-05,-3.22718e-05,-2.70512e-05,1.73749e-05,-1.10696e-06,5
-2.86064e-05,9.72473e-06,-7.65938e-06,-3.30977e-05,-2.36449e-07,-2.53907e-05,2.55999e-05,1.12117e-06,5
-2.8916e-05,1.07987e-05,-5.83595e-06,-2.9622e-05,2.8252e-05,-2.29387e-05,2.93035e-05,2.80564e-06,5
-2.97536e-05,9.12818e-06,-4.32071e-06,-2.56414e-05,5.64141e-05,-2.12122e-05,2.69544e-05,2.89877e-06,5
-3.06821e-05,6.74315e-06,-3.91396e-06,-1.79679e-05,7.84568e-05,-2.1122e-05,2.26884e-05,3.92173e-06,5
-3.16401e-05,4.90998e-06,-5.21412e-06,-7.90166e-06,7.71277e-05,-2.01172e-05,2.06177e-05,5.51327e-06,5
-3.22999e-05,3.50344e-06,-6.98537e-06,2.15393e-06,4.97311e-05,-1.81506e-05,2.19481e-05,5.88035e-06,5
-3.32255e-05,2.13109e-06,-7.83711e-06,1.05901e-05,1.28737e-05,-1.4713e-05,2.58409e-05,6.1246e-06,5
-3.34797e-05,2.13393e-06,-7.70886e-06,1.47631e-05,-1.34835e-05,-7.74196e-06,3.02611e-05,6.79093e-06,5
-3.27105e-05,3.72758e-06,-7.7351e-06,1.46489e-05,-2.53433e-05,9.60605e-07,3.05811e-05,6.90674e-06,5
-3.1368e-05,5.25675e-06,-7.04816e-06,1.02721e-05,-2.45425e-05,7.01564e-06,2.61157e-05,5.69239e-06,5
-2.99009e-05,6.16965e-06,-4.96027e-06,1.79714e-06,-8.14007e-06,1.12599e-05,2.1144e-05,3.17802e-06,5
-2.94863e-05,7.30412e-06,-2.6857e-06,-9.2776e-06,2.44875e-05,1.74907e-05,1.91373e-05,1.02537e-06,5
-3.03131e-05,8.61767e-06,-2.01461e-06,-1.9496e-05,5.9975e-05,2.5403e-05,1.87346e-05,9.98151e-07,5
-3.0497e-05,1.0043e-05,-2.73282e-06,-2.54221e-05,8.02527e-05,3.13079e-05,1.76795e-05,3.10324e-06,5
-2.98685e-05,1.1847e-05,-4.33353e-06,-2.33964e-05,7.58044e-05,3.1061e-05,1.5779e-05,3.34649e-06,5
-2.96972e-05,1.2562e-05,-5.90321e-06,-1.48811e-05,5.09687e-05,2.37982e-05,1.47282e-05,-1.07345e-07,5
-2.96026e-05,1.18464e-05,-7.17762e-06,-5.85306e-06,2.3164e-05,1.54956e-05,1.44083e-05,-3.12043e-06,5
-2.99986e-05,1.06795e-05,-9.06646e-06,-1.55669e-06,1.9033e-06,1.06548e-05,1.36792e-05,-3.14756e-06,5
-3.06773e-05,9.74827e-06,-1.0852e-05,-3.40129e-06,-1.50438e-05,6.93309e-06,1.35304e-05,-1.72917e-06,5
-3.10226e-05,1.01302e-05,-9.45881e-06,-4.36759e-06,-2.6622e-05,-3.25718e-07,1.32354e-05,2.75184e-08,5
-3.1338e-05,1.11195e-05,-8.08575e-06,-1.26066e-06,-2.31097e-05,-1.11465e-05,1.40345e-05,1.33947e-06,5
-3.15431e-05,1.19405e-05,-7.85846e-06,1.49442e-07,-2.5842e-06,-1.98057e-05,1.7231e-05,2.60617e-06,5
-3.05811e-05,1.20216e-05,-6.8765e-06,1.0766e-06,2.20213e-05,-2.51216e-05,1.82495e-05,3.68844e-06,5
-2.97168e-05,1.17339e-05,-5.78735e-06,2.76173e-06,4.32713e-05,-2.62091e-05,1.57755e-05,2.95222e-06,5
-3.1555e-05,1.14528e-05,-4.76798e-06,3.78877e-06,5.69793e-05,-2.29631e-05,1.27343e-05,1.70349e-06,5
-3.4494e-05,1.04286e-05,-5.84482e-06,6.22042e-06,5.95567e-05,-1.7576e-05,1.18067e-05,1.00009e-06,5
-3.57965e-05,9.93887e-06,-7.64214e-06,5.73647e-06,4.69658e-05,-1.35304e-05,1.34275e-05,1.10698e-06,5
-3.42574e-05,1.07838e-05,-1.00257e-05,-6.12996e-06,2.2127e-05,-1.33761e-05,1.5682e-05,2.47418e-06,5
-3.13046e-05,1.17487e-05,-1.30457e-05,-2.68541e-05,-2.81127e-06,-1.61687e-05,1.85065e-05,3.30369e-06,5
-2.95112e-05,1.20626e-05,-1.52966e-05,-3.8899e-05,-1.63466e-05,-1.96211e-05,2.10755e-05,3.43946e-06,5
-2.98361e-05,1.30077e-05,-1.37939e-05,-3.19357e-05,-1.62826e-05,-2.11313e-05,2.06938e-05,3.28231e-06,5
-3.1353e-05,1.44498e-05,-9.44944e-06,-1.37572e-05,-8.88827e-06,-2.05712e-05,1.7139e-05,3.17135e-06,5
-3.18979e-05,1.49149e-05,-4.39412e-06,4.89706e-06,3.55039e-07,-1.89907e-05,1.27898e-05,2.92951e-06,5
-3.12804e-05,1.44546e-05,2.27826e-07,1.76092e-05,7.74175e-06,-1.74268e-05,9.21171e-06,1.70879e-06,5
-3.06266e-05,1.48386e-05,3.24945e-06,2.04746e-05,1.48042e-05,-1.461e-05,7.84038e-06,-1.53262e-07,5
-3.06923e-05,1.49209e-05,4.78474e-06,1.49322e-05,2.29756e-05,-1.02251e-05,8.32958e-06,-1.44581e-06,5
-3.07395e-05,1.19373e-05,5.43928e-06,7.59111e-06,3.01683e-05,-6.85184e-06,8.65311e-06,-8.4838e-07,5
-3.0649e-05,6.90296e-06,7.03167e-06,3.93399e-06,3.26724e-05,-6.42458e-06,8.8482e-06,9.21267e-07,5
-3.05815e-05,3.7229e-06,9.40466e-06,5.12534e-06,3.02603e-05,-7.99274e-06,1.00662e-05,3.15359e-06,5
-3.0555e-05,3.80248e-06,1.04973e-05,9.20333e-06,2.3925e-05,-9.7205e-06,1.04576e-05,4.57652e-06,5
-3.07249e-05,5.61556e-06,8.2363e-06,1.2384e-05,1.82753e-05,-1.01684e-05,9.67829e-06,4.76375e-06,5
-3.0759e-05,8.71515e-06,4.62164e-06,9.78173e-06,1.22851e-05,-1.01564e-05,9.03229e-06,3.61573e-06,5
-3.10584e-05,9.53926e-06,-8.44514e-08,-3.65359e-07,3.57944e-06,-1.35469e-05,7.25738e-06,2.80754e-06,5
-3.1384e-05,5.85016e-06,-7.26439e-06,-1.13575e-05,-2.39348e-06,-1.93379e-05,2.65474e-06,1.97157e-06,5
-3.15064e-05,2.36952e-06,-1.58789e-05,-1.41989e-05,-1.89009e-06,-2.1606e-05,-2.17274e-06,7.66994e-07,5
-3.09987e-05,2.62712e-06,-2.13802e-05,-1.11917e-05,1.39053e-07,-1.96042e-05,-3.68891e-06,1.47652e-07,5
-3.09299e-05,3.0331e-06,-2.29631e-05,-6.7156e-06,3.21933e-07,-1.79671e-05,-3.28386e-06,-3.86763e-07,5
-3.19372e-05,3.4534e-07,-2.26312e-05,-2.08519e-06,6.16296e-07,-1.68981e-05,-2.58883e-06,6.19966e-07,5
-3.32627e-05,-3.63805e-06,-2.1002e-05,3.97775e-07,-8.21813e-07,-1.31543e-05,-2.04442e-07,3.88886e-06,5
-3.41886e-05,-6.09547e-06,-2.00125e-05,2.21472e-06,-2.69815e-06,-8.07912e-06,3.51901e-06,6.39862e-06,5
-3.39822e-05,-5.80816e-06,-2.22221e-05,3.98532e-06,-2.3595e-06,-5.74589e-06,5.04144e-06,5.3091e-06,5
-3.4222e-05,-4.32767e-06,-2.70206e-05,4.55341e-06,-2.32101e-07,-7.14926e-06,3.1759e-06,2.52087e-06,5
-3.44714e-05,-1.81836e-07,-3.03587e-05,4.46952e-06,1.92432e-06,-1.12442e-05,6.68801e-07,-2.70481e-07,5
-3.47614e-05,1.10301e-05,-2.90384e-05,7.52826e-06,-5.86086e-06,-1.65065e-05,2.97806e-07,-1.96944e-06,5
-3.59351e-05,2.92721e-05,-2.353e-05,9.64505e-06,-2.8442e-05,-2.23711e-05,1.96873e-06,-2.94451e-06,5
-3.62401e-05,4.83724e-05,-1.81891e-05,6.84807e-06,-4.5447e-05,-2.84883e-05,5.41685e-06,-3.10961e-06,5
-3.64205e-05,6.02489e-05,-1.47733e-05,2.68162e-06,-3.8115e-05,-3.25897e-05,7.53281e-06,-2.90916e-06,5
-3.81605e-05,6.06235e-05,-1.18572e-05,9.90291e-07,-1.42552e-05,-3.34292e-05,6.23788e-06,-3.20346e-06,5
-4.00852e-05,4.92003e-05,-9.61141e-06,3.56646e-06,9.82097e-06,-3.11369e-05,2.39957e-06,-4.11115e-06,5
-3.95454e-05,3.14209e-05,-8.62983e-06,6.87261e-06,3.00642e-05,-2.47922e-05,-8.14225e-07,-5.60145e-06,5
-3.69563e-05,1.63434e-05,-7.55847e-06,8.3515e-06,4.99318e-05,-1.2047e-05,-3.96291e-07,-6.03914e-06,5
-3.48189e-05,9.17352e-06,-5.50211e-06,8.69594e-06,6.32189e-05,4.79251e-06,6.25762e-06,-4.04698e-06,5
-3.42916e-05,8.92677e-06,-2.48139e-06,9.35978e-06,5.84825e-05,1.82111e-05,1.85477e-05,-5.8726e-07,5
-3.41026e-05,1.18466e-05,-2.2588e-07,7.5567e-06,3.69926e-05,2.30802e-05,2.68534e-05,9.17486e-07,5
-3.28734e-05,1.54425e-05,-7.40845e-07,2.94424e-06,1.08251e-05,1.98611e-05,2.60175e-05,-4.00191e-07,5
-3.11291e-05,2.01056e-05,-3.46785e-06,-8.80304e-07,-1.06964e-05,1.24173e-05,2.07722e-05,-1.83342e-06,5
-3.05029e-05,2.36869e-05,-5.31106e-06,-3.14626e-06,-2.41661e-05,4.42831e-06,1.65165e-05,-2.28973e-06,5
-3.12448e-05,2.25409e-05,-4.70006e-06,-6.33069e-06,-2.29376e-05,-9.00561e-07,1.37323e-05,-3.20465e-06,5
-3.20323e-05,1.86218e-05,-3.16668e-06,-9.52804e-06,-3.18905e-06,-5.5567e-06,1.24848e-05,-3.94038e-06,5
-3.05274e-05,1.63543e-05,-2.4128e-06,-8.63088e-06,2.6572e-05,-1.29118e-05,1.44813e-05,-2.98915e-06,5
-2.66346e-05,1.66883e-05,-1.39391e-06,-4.40235e-06,5.20356e-05,-2.1841e-05,1.99202e-05,1.12868e-07,5
-2.29132e-05,1.66191e-05,9.30234e-07,-2.21802e-06,6.39554e-05,-2.49445e-05,2.50672e-05,2.73166e-06,5
-2.11165e-05,1.52734e-05,2.11467e-06,-4.98218e-06,5.86183e-05,-1.3322e-05,2.67603e-05,3.39376e-06,5
-2.23998e-05,1.41531e-05,-1.34108e-06,-1.2268e-05,4.22926e-05,7.7886e-06,2.54048e-05,2.9238e-06,5
-2.53733e-05,1.39222e-05,-5.3221e-06,-1.82749e-05,3.18592e-05,1.80927e-05,2.35424e-05,2.00085e-06,5
-2.83886e-05,1.43263e-05,-5.9674e-06,-1.64469e-05,2.87971e-05,1.18934e-05,2.00681e-05,-2.59549e-07,5
-2.97702e-05,1.41193e-05,-6.18472e-06,-1.0543e-05,2.3059e-05,-2.19664e-07,1.55323e-05,-3.05734e-06,5
-2.86855e-05,1.29076e-05,-6.21582e-06,-6.43032e-06,1.75979e-05,-1.29597e-05,1.26554e-05,-4.30193e-06,5
-2.81686e-05,1.09664e-05,-5.42347e-06,-2.29952e-06,1.59655e-05,-1.81472e-05,9.51753e-06,-4.46086e-06,5
-2.89131e-05,9.66331e-06,-4.51758e-06,3.85674e-06,1.50503e-05,-1.61385e-05,6.16982e-06,-3.46501e-06,5
-2.74806e-05,1.04408e-05,-4.88898e-06,6.06522e-06,1.24672e-05,-1.24784e-05,3.9899e-06,-2.15148e-06,5
-2.45599e-05,1.19116e-05,-6.20733e-06,1.87342e-06,8.15039e-06,-1.05368e-05,3.05225e-06,-1.73689e-06,5
-2.31921e-05,1.25434e-05,-7.29164e-06,-5.23937e-06,2.31611e-06,-1.33389e-05,1.73097e-06,-2.79646e-06,5
-2.379e-05,1.19556e-05,-6.1713e-06,-1.02385e-05,-1.90215e-06,-1.97473e-05,1.9901e-07,-3.81456e-06,5
-2.4517e-05,1.14993e-05,-4.0712e-06,-1.23637e-05,-4.13492e-06,-2.615e-05,1.0285e-06,-3.53139e-06,5
-2.43554e-05,1.19514e-05,-4.15217e-06,-1.48997e-05,-6.85953e-06,-3.13811e-05,7.35602e-06,-1.87776e-06,5
-2.38778e-05,1.31435e-05,-6.13863e-06,-1.83085e-05,-1.06513e-05,-3.72793e-05,1.71548e-05,1.30876e-07,5
-2.39149e-05,1.38012e-05,-8.96598e-06,-2.09243e-05,-1.51438e-05,-4.14902e-05,2.48e-05,1.32301e-06,5
-2.48238e-05,1.38404e-05,-1.08361e-05,-2.06647e-05,-1.70054e-05,-4.15338e-05,2.78954e-05,1.83535e-06,5
